ID	总功力系数
int	float
Id	EnemyPowerRate
1	0.300000
2	0.330000
3	0.360000
4	0.400000
5	0.440000
6	0.480000
7	0.530000
8	0.580000
9	0.640000
10	0.700000
11	0.770000
12	0.850000
13	0.940000
14	1.030000
15	1.130000
16	1.240000
17	1.360000
18	1.500000
19	1.650000
20	1.820000
21	2.000000
22	2.200000
23	2.420000
24	2.660000
